# GLoBES cross section file for NC interactions in the following material:
#
#      PDG code     abundance
#     1000260560        1
#
# log10(E/GeV) \nu_e      \nu_\mu         \nu_\tau      \bar{\nu}_e    \bar{\nu}_\mu  \bar{\nu}_\tau
-1.	0.05507238	0.05507238	0.05507238           0.0           0.0             0.0
-0.997	0.05576289	0.05576289	0.05576289           0.0           0.0             0.0
-0.994	0.05644864	0.05644864	0.05644864           0.0           0.0             0.0
-0.991	0.05712967	0.05712967	0.05712967           0.0           0.0             0.0
-0.988	0.05780601	0.05780601	0.05780601           0.0           0.0             0.0
-0.985	0.0584777	0.0584777	0.0584777           0.0           0.0             0.0
-0.982	0.05951627	0.05951627	0.05951627           0.0           0.0             0.0
-0.979	0.0605672	0.0605672	0.0605672           0.0           0.0             0.0
-0.976	0.06161089	0.06161089	0.06161089           0.0           0.0             0.0
-0.973	0.0626474	0.0626474	0.0626474           0.0           0.0             0.0
-0.97	0.06367677	0.06367677	0.06367677           0.0           0.0             0.0
-0.967	0.06469814	0.06469814	0.06469814           0.0           0.0             0.0
-0.964	0.06566664	0.06566664	0.06566664           0.0           0.0             0.0
-0.961	0.06662847	0.06662847	0.06662847           0.0           0.0             0.0
-0.958	0.06758368	0.06758368	0.06758368           0.0           0.0             0.0
-0.955	0.06853231	0.06853231	0.06853231           0.0           0.0             0.0
-0.952	0.06947442	0.06947442	0.06947442           0.0           0.0             0.0
-0.949	0.07040145	0.07040145	0.07040145           0.0           0.0             0.0
-0.946	0.07122082	0.07122082	0.07122082           0.0           0.0             0.0
-0.943	0.07203455	0.07203455	0.07203455           0.0           0.0             0.0
-0.94	0.07284268	0.07284268	0.07284268           0.0           0.0             0.0
-0.937	0.07364525	0.07364525	0.07364525           0.0           0.0             0.0
-0.934	0.07444229	0.07444229	0.07444229           0.0           0.0             0.0
-0.931	0.0752813	0.0752813	0.0752813           0.0           0.0             0.0
-0.928	0.07638742	0.07638742	0.07638742           0.0           0.0             0.0
-0.925	0.07748592	0.07748592	0.07748592           0.0           0.0             0.0
-0.922	0.07857686	0.07857686	0.07857686           0.0           0.0             0.0
-0.919	0.07966029	0.07966029	0.07966029           0.0           0.0             0.0
-0.916	0.08073627	0.08073627	0.08073627           0.0           0.0             0.0
-0.913	0.08181624	0.08181624	0.08181624           0.0           0.0             0.0
-0.91	0.08293069	0.08293069	0.08293069           0.0           0.0             0.0
-0.907	0.08403746	0.08403746	0.08403746           0.0           0.0             0.0
-0.904	0.08513662	0.08513662	0.08513662           0.0           0.0             0.0
-0.901	0.08622821	0.08622821	0.08622821           0.0           0.0             0.0
-0.898	0.08731228	0.08731228	0.08731228           0.0           0.0             0.0
-0.895	0.08839438	0.08839438	0.08839438           0.0           0.0             0.0
-0.892	0.08948356	0.08948356	0.08948356           0.0           0.0             0.0
-0.889	0.09056525	0.09056525	0.09056525           0.0           0.0             0.0
-0.886	0.09163949	0.09163949	0.09163949           0.0           0.0             0.0
-0.883	0.09270633	0.09270633	0.09270633          0.0           0.0             0.0 
-0.88	0.09376583	0.09376583	0.09376583           0.0           0.0             0.0
-0.877	0.09491078	0.09491078	0.09491078          0.0           0.0             0.0 
-0.874	0.09622896	0.09622896	0.09622896           0.0           0.0             0.0
-0.871	0.09753807	0.09753807	0.09753807          0.0           0.0             0.0 
-0.868	0.09883816	0.09883816	0.09883816           0.0           0.0             0.0
-0.865	0.1001293	0.1001293	0.1001293            0.0           0.0             0.0
-0.862	0.1014116	0.1014116	0.1014116            0.0           0.0             0.0
-0.859	0.1026723	0.1026723	0.1026723            0.0           0.0             0.0
-0.856	0.1039048	0.1039048	0.1039048            0.0           0.0             0.0
-0.853	0.1051289	0.1051289	0.1051289            0.0           0.0             0.0
-0.85	0.1063445	0.1063445	0.1063445            0.0           0.0             0.0
-0.847	0.1075518	0.1075518	0.1075518            0.0           0.0             0.0
-0.844	0.1087508	0.1087508	0.1087508            0.0           0.0             0.0
-0.841	0.1099543	0.1099543	0.1099543            0.0           0.0             0.0
-0.838	0.1111644	0.1111644	0.1111644            0.0           0.0             0.0
-0.835	0.1123661	0.1123661	0.1123661            0.0           0.0             0.0
-0.832	0.1135595	0.1135595	0.1135595            0.0           0.0             0.0
-0.829	0.1147448	0.1147448	0.1147448           0.0           0.0             0.0 
-0.826	0.1159219	0.1159219	0.1159219            0.0           0.0             0.0
-0.823	0.1172719	0.1172719	0.1172719            0.0           0.0             0.0
-0.82	0.118776	0.118776	0.118776             0.0           0.0             0.0
-0.817	0.1202697	0.1202697	0.1202697            0.0           0.0             0.0
-0.814	0.1217531	0.1217531	0.1217531            0.0           0.0             0.0
-0.811	0.1232264	0.1232264	0.1232264            0.0           0.0             0.0
-0.808	0.1246894	0.1246894	0.1246894            0.0           0.0             0.0
-0.805	0.1260267	0.1260267	0.1260267            0.0           0.0             0.0
-0.802	0.127274	0.127274	0.127274             0.0           0.0             0.0
-0.799	0.1285128	0.1285128	0.1285128            0.0           0.0             0.0
-0.796	0.129743	0.129743	0.129743            0.0           0.0             0.0 
-0.793	0.1309647	0.1309647	0.1309647           0.0           0.0             0.0
-0.79	0.1321781	0.1321781	0.1321781           0.0           0.0             0.0
-0.787	0.1335371	0.1335371	0.1335371           0.0           0.0             0.0
-0.784	0.1349683	0.1349683	0.1349683           0.0           0.0             0.0
-0.781	0.1363896	0.1363896	0.1363896          0.0           0.0             0.0 
-0.778	0.1378012	0.1378012	0.1378012           0.0           0.0             0.0
-0.775	0.139203	0.139203	0.139203           0.0           0.0             0.0 
-0.772	0.1405952	0.1405952	0.1405952           0.0           0.0             0.0
-0.769	0.1423608	0.1423608	0.1423608          0.0           0.0             0.0 
-0.766	0.1442617	0.1442617	0.1442617           0.0           0.0             0.0
-0.763	0.1461496	0.1461496	0.1461496           0.0           0.0             0.0
-0.76	0.1480245	0.1480245	0.1480245           0.0           0.0             0.0
-0.757	0.1498866	0.1498866	0.1498866           0.0           0.0             0.0
-0.754	0.1517358	0.1517358	0.1517358           0.0           0.0             0.0
-0.751	0.1530284	0.1530284	0.1530284           0.0           0.0             0.0
-0.748	0.1541632	0.1541632	0.1541632           0.0           0.0             0.0
-0.745	0.1552903	0.1552903	0.1552903           0.0           0.0             0.0
-0.742	0.1564096	0.1564096	0.1564096           0.0           0.0             0.0
-0.739	0.1575214	0.1575214	0.1575214           0.0           0.0             0.0
-0.736	0.1586255	0.1586255	0.1586255           0.0           0.0             0.0
-0.733	0.1603723	0.1603723	0.1603723           0.0           0.0             0.0
-0.73	0.1622256	0.1622256	0.1622256           0.0           0.0             0.0
-0.727	0.1640662	0.1640662	0.1640662          0.0           0.0             0.0 
-0.724	0.1658943	0.1658943	0.1658943           0.0           0.0             0.0
-0.721	0.1677099	0.1677099	0.1677099           0.0           0.0             0.0
-0.718	0.1695131	0.1695131	0.1695131           0.0           0.0             0.0
-0.715	0.1708473	0.1708473	0.1708473           0.0           0.0             0.0
-0.712	0.1721253	0.1721253	0.1721253           0.0           0.0             0.0
-0.709	0.1733947	0.1733947	0.1733947           0.0           0.0             0.0
-0.706	0.1746554	0.1746554	0.1746554           0.0           0.0             0.0
-0.703	0.1759078	0.1759078	0.1759078           0.0           0.0             0.0
-0.7	0.1771519	0.1771519	0.1771519           0.0           0.0             0.0
-0.697	0.178859	0.178859	0.178859            0.0           0.0             0.0
-0.694	0.1805698	0.1805698	0.1805698           0.0           0.0             0.0
-0.691	0.1822693	0.1822693	0.1822693           0.0           0.0             0.0
-0.688	0.1839576	0.1839576	0.1839576           0.0           0.0             0.0
-0.685	0.1856347	0.1856347	0.1856347           0.0           0.0             0.0
-0.682	0.1873034	0.1873034	0.1873034           0.0           0.0             0.0
-0.679	0.1890514	0.1890514	0.1890514          0.0           0.0             0.0 
-0.676	0.1907881	0.1907881	0.1907881           0.0           0.0             0.0
-0.673	0.1925132	0.1925132	0.1925132          0.0           0.0             0.0 
-0.67	0.1942265	0.1942265	0.1942265           0.0           0.0             0.0
-0.667	0.1959286	0.1959286	0.1959286          0.0           0.0             0.0 
-0.664	0.1975559	0.1975559	0.1975559           0.0           0.0             0.0
-0.661	0.1986002	0.1986002	0.1986002           0.0           0.0             0.0
-0.658	0.1996373	0.1996373	0.1996373           0.0           0.0             0.0
-0.655	0.2006679	0.2006679	0.2006679           0.0           0.0             0.0
-0.652	0.2016929	0.2016929	0.2016929           0.0           0.0             0.0
-0.649	0.2027115	0.2027115	0.2027115           0.0           0.0             0.0
-0.646	0.2038619	0.2038619	0.2038619           0.0           0.0             0.0
-0.643	0.2057161	0.2057161	0.2057161           0.0           0.0             0.0
-0.64	0.2075597	0.2075597	0.2075597           0.0           0.0             0.0
-0.637	0.2093913	0.2093913	0.2093913           0.0           0.0             0.0
-0.634	0.2112107	0.2112107	0.2112107           0.0           0.0             0.0
-0.631	0.2130181	0.2130181	0.2130181           0.0           0.0             0.0
-0.628	0.2147507	0.2147507	0.2147507           0.0           0.0             0.0
-0.625	0.2162483	0.2162483	0.2162483          0.0           0.0             0.0 
-0.622	0.2177362	0.2177362	0.2177362           0.0           0.0             0.0
-0.619	0.2192142	0.2192142	0.2192142           0.0           0.0             0.0
-0.616	0.2206854	0.2206854	0.2206854           0.0           0.0             0.0
-0.613	0.2221479	0.2221479	0.2221479           0.0           0.0             0.0
-0.61	0.2236071	0.2236071	0.2236071           0.0           0.0             0.0
-0.607	0.2250708	0.2250708	0.2250708           0.0           0.0             0.0
-0.604	0.2265287	0.2265287	0.2265287           0.0           0.0             0.0
-0.601	0.2279784	0.2279784	0.2279784           0.0           0.0             0.0
-0.598	0.2294196	0.2294196	0.2294196           0.0           0.0             0.0
-0.595	0.2308508	0.2308508	0.2308508           0.0           0.0             0.0
-0.592	0.2321998	0.2321998	0.2321998           0.0           0.0             0.0
-0.589	0.2334002	0.2334002	0.2334002           0.0           0.0             0.0
-0.586	0.2345942	0.2345942	0.2345942           0.0           0.0             0.0
-0.583	0.23578	0.23578	0.23578                             0.0           0.0             0.0
-0.58	0.2369621	0.2369621	0.2369621           0.0           0.0             0.0
-0.577	0.2381398	0.2381398	0.2381398          0.0           0.0             0.0 
-0.574	0.2394312	0.2394312	0.2394312           0.0           0.0             0.0
-0.571	0.24088	0.24088	0.24088                            0.0           0.0             0.0 
-0.568	0.2423238	0.2423238	0.2423238           0.0           0.0             0.0
-0.565	0.2437626	0.2437626	0.2437626          0.0           0.0             0.0 
-0.562	0.2451958	0.2451958	0.2451958           0.0           0.0             0.0
-0.559	0.2466191	0.2466191	0.2466191           0.0           0.0             0.0
-0.556	0.2482029	0.2482029	0.2482029           0.0           0.0             0.0
-0.553	0.2499606	0.2499606	0.2499606           0.0           0.0             0.0
-0.55	0.2517121	0.2517121	0.2517121           0.0           0.0             0.0
-0.547	0.2534516	0.2534516	0.2534516           0.0           0.0             0.0
-0.544	0.2551843	0.2551843	0.2551843           0.0           0.0             0.0
-0.541	0.2569136	0.2569136	0.2569136           0.0           0.0             0.0
-0.538	0.258133	0.258133	0.258133            0.0           0.0             0.0
-0.535	0.2589192	0.2589192	0.2589192           0.0           0.0             0.0
-0.532	0.2597052	0.2597052	0.2597052           0.0           0.0             0.0
-0.529	0.2604968	0.2604968	0.2604968           0.0           0.0             0.0
-0.526	0.2612942	0.2612942	0.2612942           0.0           0.0             0.0
-0.523	0.2620861	0.2620861	0.2620861          0.0           0.0             0.0 
-0.52	0.2629559	0.2629559	0.2629559           0.0           0.0             0.0
-0.517	0.2638836	0.2638836	0.2638836           0.0           0.0             0.0
-0.514	0.2648202	0.2648202	0.2648202           0.0           0.0             0.0
-0.511	0.2657504	0.2657504	0.2657504           0.0           0.0             0.0
-0.508	0.2666791	0.2666791	0.2666791           0.0           0.0             0.0
-0.505	0.2676213	0.2676213	0.2676213           0.0           0.0             0.0
-0.502	0.2687334	0.2687334	0.2687334           0.0           0.0             0.0
-0.499	0.2699165	0.2699165	0.2699165           0.0           0.0             0.0
-0.496	0.2710951	0.2710951	0.2710951           0.0           0.0             0.0
-0.493	0.2722896	0.2722896	0.2722896           0.0           0.0             0.0
-0.49	0.273496	0.273496	0.273496            0.0           0.0             0.0
-0.487	0.2746972	0.2746972	0.2746972           0.0           0.0             0.0
-0.484	0.2757902	0.2757902	0.2757902           0.0           0.0             0.0
-0.481	0.2768704	0.2768704	0.2768704           0.0           0.0             0.0
-0.478	0.2779648	0.2779648	0.2779648           0.0           0.0             0.0
-0.475	0.2790569	0.2790569	0.2790569          0.0           0.0             0.0 
-0.472	0.2801414	0.2801414	0.2801414           0.0           0.0             0.0
-0.469	0.2812565	0.2812565	0.2812565          0.0           0.0             0.0 
-0.466	0.2822547	0.2822547	0.2822547           0.0           0.0             0.0
-0.463	0.2832202	0.2832202	0.2832202          0.0           0.0             0.0 
-0.46	0.2841791	0.2841791	0.2841791           0.0           0.0             0.0
-0.457	0.2851694	0.2851694	0.2851694           0.0           0.0             0.0
-0.454	0.2861798	0.2861798	0.2861798           0.0           0.0             0.0
-0.451	0.287194	0.287194	0.287194            0.0           0.0             0.0
-0.448	0.2880914	0.2880914	0.2880914           0.0           0.0             0.0
-0.445	0.2890029	0.2890029	0.2890029           0.0           0.0             0.0
-0.442	0.2899386	0.2899386	0.2899386           0.0           0.0             0.0
-0.439	0.2908818	0.2908818	0.2908818           0.0           0.0             0.0
-0.436	0.2918184	0.2918184	0.2918184           0.0           0.0             0.0
-0.433	0.2927837	0.2927837	0.2927837           0.0           0.0             0.0
-0.43	0.2937844	0.2937844	0.2937844           0.0           0.0             0.0
-0.427	0.2947962	0.2947962	0.2947962           0.0           0.0             0.0
-0.424	0.2958011	0.2958011	0.2958011           0.0           0.0             0.0
-0.421	0.2968335	0.2968335	0.2968335          0.0           0.0             0.0 
-0.418	0.2978959	0.2978959	0.2978959           0.0           0.0             0.0
-0.415	0.2989711	0.2989711	0.2989711           0.0           0.0             0.0
-0.412	0.299746	0.299746	0.299746            0.0           0.0             0.0
-0.409	0.3005422	0.3005422	0.3005422           0.0           0.0             0.0
-0.406	0.3013657	0.3013657	0.3013657           0.0           0.0             0.0
-0.403	0.3022061	0.3022061	0.3022061           0.0           0.0             0.0
-0.4	0.3030407	0.3030407	0.3030407           0.0           0.0             0.0
-0.397	0.303899	0.303899	0.303899            0.0           0.0             0.0
-0.394	0.3048315	0.3048315	0.3048315           0.0           0.0             0.0
-0.391	0.3057831	0.3057831	0.3057831           0.0           0.0             0.0
-0.388	0.306728	0.306728	0.306728            0.0           0.0             0.0
-0.385	0.3076891	0.3076891	0.3076891           0.0           0.0             0.0
-0.382	0.3086759	0.3086759	0.3086759           0.0           0.0             0.0
-0.379	0.3096657	0.3096657	0.3096657           0.0           0.0             0.0
-0.376	0.310516	0.310516	0.310516            0.0           0.0             0.0
-0.373	0.3113793	0.3113793	0.3113793          0.0           0.0             0.0 
-0.37	0.3122754	0.3122754	0.3122754           0.0           0.0             0.0
-0.367	0.3131962	0.3131962	0.3131962          0.0           0.0             0.0 
-0.364	0.3141106	0.3141106	0.3141106           0.0           0.0             0.0
-0.361	0.3149451	0.3149451	0.3149451          0.0           0.0             0.0 
-0.358	0.3154078	0.3154078	0.3154078           0.0           0.0             0.0
-0.355	0.3158991	0.3158991	0.3158991           0.0           0.0             0.0
-0.352	0.316387	0.316387	0.316387            0.0           0.0             0.0
-0.349	0.3168831	0.3168831	0.3168831           0.0           0.0             0.0
-0.346	0.3174145	0.3174145	0.3174145           0.0           0.0             0.0
-0.343	0.3180886	0.3180886	0.3180886           0.0           0.0             0.0
-0.34	0.319112	0.319112	0.319112            0.0           0.0             0.0
-0.337	0.3201362	0.3201362	0.3201362           0.0           0.0             0.0
-0.334	0.3211881	0.3211881	0.3211881           0.0           0.0             0.0
-0.331	0.3222621	0.3222621	0.3222621           0.0           0.0             0.0
-0.328	0.3233287	0.3233287	0.3233287           0.0           0.0             0.0
-0.325	0.3242854	0.3242854	0.3242854           0.0           0.0             0.0
-0.322	0.3250335	0.3250335	0.3250335           0.0           0.0             0.0
-0.319	0.3258098	0.3258098	0.3258098          0.0           0.0             0.0 
-0.316	0.326582	0.326582	0.326582            0.0           0.0             0.0
-0.313	0.3273502	0.3273502	0.3273502           0.0           0.0             0.0
-0.31	0.3281482	0.3281482	0.3281482           0.0           0.0             0.0
-0.307	0.328809	0.328809	0.328809            0.0           0.0             0.0
-0.304	0.3292063	0.3292063	0.3292063           0.0           0.0             0.0
-0.301	0.3296009	0.3296009	0.3296009           0.0           0.0             0.0
-0.298	0.3300245	0.3300245	0.3300245           0.0           0.0             0.0
-0.295	0.3304642	0.3304642	0.3304642           0.0           0.0             0.0
-0.292	0.3309055	0.3309055	0.3309055           0.0           0.0             0.0
-0.289	0.3314275	0.3314275	0.3314275           0.0           0.0             0.0
-0.286	0.3320849	0.3320849	0.3320849           0.0           0.0             0.
-0.283	0.332769	0.332769	0.332769            0.0           0.0             0.
-0.28	0.3334551	0.3334551	0.3334551           0.0           0.0             0.
-0.277	0.3341364	0.3341364	0.3341364           0.0           0.0             0.
